TITLE
DATA TYPE
ORIGIN JASCO
OWNER
DATE 19/10/22
TIME 14:03:36
SPECTROMETER/DATA SYSTEM JASCO Corp.  V-570  Rev. 1
RESOLUTION
DELTAX -1
XUNITS NANOMETERS
YUNITS ABSORBANCE
FIRSTX 840
LASTX 190
NPOINTS 651
FIRSTY 0.25295
MAXY 1.83829
MINY 0.25295
XYDATA
840     0.126475
839     0.126535
838     0.12652
837     0.1265
836     0.12658
835     0.12675
834     0.126885
833     0.127035
832     0.12712
831     0.12724
830     0.127325
829     0.12745
828     0.127565
827     0.12765
826     0.12785
825     0.12797
824     0.128185
823     0.1283
822     0.12849
821     0.12875
820     0.12891
819     0.129135
818     0.12929
817     0.12946
816     0.129755
815     0.129935
814     0.130065
813     0.130195
812     0.130405
811     0.13062
810     0.13082
809     0.13101
808     0.131165
807     0.13137
806     0.13155
805     0.13171
804     0.131925
803     0.132095
802     0.132345
801     0.13263
800     0.13279
799     0.132995
798     0.133155
797     0.133335
796     0.133475
795     0.13368
794     0.133885
793     0.13415
792     0.13435
791     0.134565
790     0.134815
789     0.13498
788     0.135205
787     0.1354
786     0.13564
785     0.13586
784     0.136065
783     0.136265
782     0.136455
781     0.136645
780     0.13684
779     0.137025
778     0.13726
777     0.13746
776     0.137665
775     0.13785
774     0.13806
773     0.1383
772     0.13855
771     0.13871
770     0.13899
769     0.139265
768     0.13956
767     0.13976
766     0.140025
765     0.14031
764     0.140595
763     0.140775
762     0.14096
761     0.141225
760     0.14141
759     0.141665
758     0.141835
757     0.142115
756     0.14243
755     0.142675
754     0.14292
753     0.14318
752     0.143435
751     0.14372
750     0.14389
749     0.14411
748     0.144305
747     0.1445
746     0.144755
745     0.14497
744     0.145215
743     0.14552
742     0.14571
741     0.145985
740     0.1466
739     0.146765
738     0.14702
737     0.147215
736     0.147455
735     0.14768
734     0.14791
733     0.14816
732     0.148395
731     0.148585
730     0.148795
729     0.14902
728     0.149265
727     0.149505
726     0.149755
725     0.150025
724     0.1503
723     0.15051
722     0.15083
721     0.15106
720     0.151335
719     0.151545
718     0.15176
717     0.152055
716     0.152335
715     0.152585
714     0.152845
713     0.153155
712     0.15348
711     0.153805
710     0.154085
709     0.15438
708     0.154705
707     0.15497
706     0.155275
705     0.155545
704     0.15583
703     0.15611
702     0.15636
701     0.15665
700     0.15695
699     0.15724
698     0.15755
697     0.157855
696     0.158195
695     0.158515
694     0.158825
693     0.159115
692     0.15941
691     0.15973
690     0.16
689     0.16028
688     0.16054
687     0.16082
686     0.161125
685     0.16141
684     0.16169
683     0.16198
682     0.16224
681     0.16251
680     0.162795
679     0.163085
678     0.163355
677     0.16364
676     0.16395
675     0.16429
674     0.16465
673     0.164955
672     0.1653
671     0.16564
670     0.166
669     0.16635
668     0.166655
667     0.16701
666     0.16732
665     0.16763
664     0.167995
663     0.16828
662     0.16856
661     0.16889
660     0.169225
659     0.169555
658     0.169885
657     0.170205
656     0.17057
655     0.17094
654     0.1713
653     0.17166
652     0.17199
651     0.17235
650     0.172685
649     0.172995
648     0.173375
647     0.173665
646     0.174015
645     0.174345
644     0.17466
643     0.175025
642     0.175375
641     0.17573
640     0.17616
639     0.17652
638     0.17692
637     0.17731
636     0.177645
635     0.178015
634     0.17841
633     0.178745
632     0.179125
631     0.17951
630     0.179905
629     0.180285
628     0.18065
627     0.181025
626     0.181405
625     0.181765
624     0.18215
623     0.18259
622     0.18298
621     0.18337
620     0.183805
619     0.184205
618     0.184605
617     0.18498
616     0.18541
615     0.1858
614     0.18618
613     0.186535
612     0.186975
611     0.187385
610     0.187775
609     0.188235
608     0.188645
607     0.189105
606     0.189555
605     0.18994
604     0.190355
603     0.190755
602     0.19113
601     0.19154
600     0.19194
599     0.19236
598     0.1928
597     0.193245
596     0.193695
595     0.19415
594     0.19461
593     0.19507
592     0.195515
591     0.19597
590     0.19642
589     0.19686
588     0.19732
587     0.197755
586     0.198175
585     0.198635
584     0.1991
583     0.19957
582     0.200055
581     0.20054
580     0.20104
579     0.20148
578     0.20195
577     0.20243
576     0.202935
575     0.20341
574     0.203865
573     0.20438
572     0.204885
571     0.2054
570     0.2059
569     0.206355
568     0.20685
567     0.20733
566     0.20785
565     0.208345
564     0.208815
563     0.20934
562     0.20985
561     0.210415
560     0.210945
559     0.211455
558     0.212
557     0.212545
556     0.213095
555     0.213615
554     0.21415
553     0.21469
552     0.215265
551     0.215845
550     0.21641
549     0.216975
548     0.217585
547     0.21815
546     0.218755
545     0.21932
544     0.21991
543     0.22047
542     0.221015
541     0.22159
540     0.22215
539     0.22269
538     0.22327
537     0.223875
536     0.22446
535     0.22506
534     0.225655
533     0.2263
532     0.226895
531     0.22751
530     0.22809
529     0.22867
528     0.229295
527     0.22989
526     0.23051
525     0.23113
524     0.23176
523     0.232395
522     0.23303
521     0.233685
520     0.235175
519     0.235585
518     0.236015
517     0.23643
516     0.237065
515     0.237765
514     0.238435
513     0.239165
512     0.23986
511     0.240605
510     0.24127
509     0.24195
508     0.242645
507     0.24335
506     0.244085
505     0.24478
504     0.245555
503     0.246275
502     0.246985
501     0.2477
500     0.2484
499     0.249165
498     0.24989
497     0.25059
496     0.251365
495     0.25213
494     0.25297
493     0.25375
492     0.254505
491     0.25533
490     0.256105
489     0.256915
488     0.25764
487     0.258405
486     0.259195
485     0.25998
484     0.26078
483     0.26158
482     0.262405
481     0.26323
480     0.26407
479     0.264915
478     0.265825
477     0.26665
476     0.267495
475     0.26837
474     0.269255
473     0.27008
472     0.270915
471     0.271805
470     0.2727
469     0.273605
468     0.274475
467     0.27545
466     0.276425
465     0.27734
464     0.27827
463     0.27918
462     0.280145
461     0.28111
460     0.282055
459     0.28302
458     0.284005
457     0.28502
456     0.28603
455     0.28702
454     0.288005
453     0.28899
452     0.29003
451     0.290985
450     0.292025
449     0.293055
448     0.29414
447     0.29518
446     0.296265
445     0.29731
444     0.29845
443     0.299535
442     0.30062
441     0.30174
440     0.30283
439     0.303965
438     0.305105
437     0.306245
436     0.307355
435     0.308565
434     0.30973
433     0.310955
432     0.31218
431     0.313455
430     0.314645
429     0.315875
428     0.317135
427     0.318365
426     0.31962
425     0.32085
424     0.322145
423     0.323365
422     0.324695
421     0.325945
420     0.32903
419     0.33001
418     0.330965
417     0.331905
416     0.33325
415     0.334655
414     0.33611
413     0.337545
412     0.33893
411     0.340405
410     0.341915
409     0.343405
408     0.34493
407     0.34648
406     0.348005
405     0.349595
404     0.351115
403     0.35273
402     0.354395
401     0.356055
400     0.357675
399     0.359355
398     0.360975
397     0.36267
396     0.36437
395     0.36603
394     0.36785
393     0.36962
392     0.37139
391     0.373135
390     0.37478
389     0.376555
388     0.378365
387     0.38009
386     0.38195
385     0.38394
384     0.385845
383     0.38784
382     0.38973
381     0.391725
380     0.393755
379     0.39571
378     0.39762
377     0.39973
376     0.40177
375     0.40393
374     0.40602
373     0.408105
372     0.41028
371     0.41254
370     0.417535
369     0.419075
368     0.42068
367     0.42215
366     0.424535
365     0.426905
364     0.42958
363     0.43221
362     0.43473
361     0.43737
360     0.43993
359     0.44252
358     0.44514
357     0.44784
356     0.450665
355     0.453505
354     0.45641
353     0.45943
352     0.462375
351     0.46544
350     0.468485
349     0.4715
348     0.47461
347     0.47788
346     0.48115
345     0.484425
344     0.48777
343     0.49111
342     0.494675
341     0.49809
340     0.505805
339     0.50826
338     0.510655
337     0.513045
336     0.51656
335     0.52007
334     0.52386
333     0.52742
332     0.53082
331     0.53429
330     0.53769
329     0.541265
328     0.54472
327     0.54824
326     0.551775
325     0.555165
324     0.55863
323     0.56232
322     0.56563
321     0.5691
320     0.572755
319     0.576345
318     0.579675
317     0.58293
316     0.58624
315     0.589975
314     0.59336
313     0.596835
312     0.60028
311     0.603825
310     0.60723
309     0.610465
308     0.613845
307     0.61715
306     0.62064
305     0.62386
304     0.627365
303     0.63116
302     0.63463
301     0.638245
300     0.641885
299     0.64573
298     0.649685
297     0.653475
296     0.65695
295     0.660505
294     0.66434
293     0.668115
292     0.671725
291     0.67522
290     0.67905
289     0.68254
288     0.68601
287     0.68911
286     0.69255
285     0.696025
284     0.699455
283     0.702815
282     0.706345
281     0.709605
280     0.712305
279     0.71506
278     0.717445
277     0.719855
276     0.72234
275     0.72437
274     0.726655
273     0.72822
272     0.73017
271     0.73171
270     0.733075
269     0.734255
268     0.73528
267     0.735905
266     0.73668
265     0.737215
264     0.737375
263     0.73766
262     0.73814
261     0.738665
260     0.739175
259     0.73928
258     0.739765
257     0.740295
256     0.740825
255     0.741275
254     0.74184
253     0.742775
252     0.743185
251     0.743605
250     0.74429
249     0.7446
248     0.744745
247     0.744795
246     0.74478
245     0.74473
244     0.744255
243     0.74365
242     0.742695
241     0.741775
240     0.740655
239     0.73924
238     0.737595
237     0.735875
236     0.734315
235     0.732905
234     0.73167
233     0.730535
232     0.729565
231     0.72937
230     0.72976
229     0.73048
228     0.731975
227     0.7341
226     0.737305
225     0.741575
224     0.746425
223     0.75228
222     0.759315
221     0.76716
220     0.77596
219     0.78549
218     0.79564
217     0.80587
216     0.81685
215     0.8275
214     0.838015
213     0.84789
212     0.85785
211     0.86767
210     0.8762
209     0.884785
208     0.893
207     0.899955
206     0.90569
205     0.910655
204     0.91398
203     0.917725
202     0.919145
201     0.91865
200     0.91734
199     0.91596
198     0.911875
197     0.90485
196     0.89922
195     0.886505
194     0.875425
193     0.856185
192     0.82255
191     0.780195
190     0.740915
