TITLE	
DATA TYPE	
ORIGIN	JASCO
OWNER	
DATE	19/08/31
TIME	14:25:59
SPECTROMETER/DATA SYSTEM	JASCO Corp., V-570, Rev. 1.00
RESOLUTION	
DELTAX	-1
XUNITS	NANOMETERS
YUNITS	ABSORBANCE
FIRSTX	840
LASTX	190
NPOINTS	651
FIRSTY	0.0038
MAXY	0.39572
MINY	0.0035
XYDATA	
840	0.0043
839	0.0042
838	0.0041
837	0.004
836	0.004
835	0.0042
834	0.0041
833	0.0041
832	0.0041
831	0.0042
830	0.0042
829	0.0042
828	0.0042
827	0.0041
826	0.0041
825	0.0041
824	0.0041
823	0.0041
822	0.004
821	0.004
820	0.004
819	0.0039
818	0.0039
817	0.0039
816	0.004
815	0.0041
814	0.0041
813	0.004
812	0.004
811	0.0039
810	0.0038
809	0.0039
808	0.0041
807	0.0041
806	0.0042
805	0.0042
804	0.0042
803	0.0042
802	0.0041
801	0.0042
800	0.0042
799	0.0042
798	0.0043
797	0.0042
796	0.0041
795	0.0041
794	0.0041
793	0.0042
792	0.0042
791	0.0042
790	0.0042
789	0.0042
788	0.0042
787	0.0042
786	0.0042
785	0.0043
784	0.0043
783	0.0044
782	0.0044
781	0.0044
780	0.0045
779	0.0045
778	0.0045
777	0.0045
776	0.0044
775	0.0044
774	0.0044
773	0.0045
772	0.0045
771	0.0045
770	0.0045
769	0.0044
768	0.0044
767	0.0045
766	0.0045
765	0.0046
764	0.0046
763	0.0046
762	0.0047
761	0.0047
760	0.0048
759	0.0048
758	0.0048
757	0.0048
756	0.0048
755	0.0048
754	0.0048
753	0.005
752	0.0051
751	0.0051
750	0.0051
749	0.0051
748	0.0051
747	0.0052
746	0.0052
745	0.0052
744	0.0052
743	0.0052
742	0.0054
741	0.0054
740	0.0054
739	0.0053
738	0.0054
737	0.0054
736	0.0055
735	0.0056
734	0.0056
733	0.0057
732	0.0057
731	0.0058
730	0.0058
729	0.0058
728	0.006
727	0.006
726	0.0061
725	0.0062
724	0.0063
723	0.0065
722	0.0067
721	0.0069
720	0.0072
719	0.0074
718	0.0076
717	0.0079
716	0.0083
715	0.0087
714	0.0092
713	0.0097
712	0.0102
711	0.0107
710	0.0114
709	0.0121
708	0.0129
707	0.0138
706	0.0147
705	0.0158
704	0.0171
703	0.0186
702	0.0202
701	0.022
700	0.024
699	0.0263
698	0.0287
697	0.0316
696	0.0346
695	0.0381
694	0.0419
693	0.046
692	0.0506
691	0.0556
690	0.0613
689	0.0674
688	0.074
687	0.0812
686	0.089
685	0.0975
684	0.1065
683	0.116
682	0.1259
681	0.1362
680	0.1469
679	0.1579
678	0.1688
677	0.1797
676	0.1904
675	0.2008
674	0.2108
673	0.2202
672	0.229
671	0.2372
670	0.2445
669	0.2511
668	0.2569
667	0.2619
666	0.2662
665	0.2698
664	0.2727
663	0.275
662	0.2767
661	0.2779
660	0.2787
659	0.2789
658	0.2788
657	0.2782
656	0.2772
655	0.2759
654	0.2742
653	0.2722
652	0.2698
651	0.2671
650	0.2641
649	0.2608
648	0.2574
647	0.2537
646	0.25
645	0.2461
644	0.2422
643	0.2382
642	0.2341
641	0.2302
640	0.2262
639	0.2224
638	0.2187
637	0.2151
636	0.2115
635	0.2081
634	0.2049
633	0.2018
632	0.199
631	0.1961
630	0.1935
629	0.191
628	0.1887
627	0.1866
626	0.1845
625	0.1826
624	0.1808
623	0.1792
622	0.1777
621	0.1763
620	0.1749
619	0.1735
618	0.1723
617	0.171
616	0.1697
615	0.1684
614	0.167
613	0.1654
612	0.1638
611	0.162
610	0.1602
609	0.1583
608	0.1561
607	0.1539
606	0.1515
605	0.149
604	0.1464
603	0.1437
602	0.1408
601	0.138
600	0.1351
599	0.1321
598	0.1291
597	0.126
596	0.1229
595	0.1198
594	0.1166
593	0.1135
592	0.1105
591	0.1075
590	0.1046
589	0.1017
588	0.0988
587	0.096
586	0.0934
585	0.0907
584	0.0881
583	0.0855
582	0.083
581	0.0806
580	0.0783
579	0.0761
578	0.074
577	0.072
576	0.0701
575	0.0683
574	0.0664
573	0.0646
572	0.0629
571	0.0613
570	0.0597
569	0.0581
568	0.0565
567	0.0551
566	0.0537
565	0.0524
564	0.0511
563	0.0499
562	0.0487
561	0.0475
560	0.0463
559	0.0451
558	0.044
557	0.0428
556	0.0417
555	0.0407
554	0.0397
553	0.0387
552	0.0377
551	0.0368
550	0.0359
549	0.0351
548	0.0343
547	0.0334
546	0.0326
545	0.0318
544	0.031
543	0.0304
542	0.0297
541	0.0291
540	0.0285
539	0.028
538	0.0275
537	0.0269
536	0.0265
535	0.0259
534	0.0255
533	0.025
532	0.0247
531	0.0244
530	0.024
529	0.0238
528	0.0236
527	0.0234
526	0.0231
525	0.0228
524	0.0226
523	0.0223
522	0.0221
521	0.022
520	0.0219
519	0.0219
518	0.0219
517	0.0219
516	0.0218
515	0.0217
514	0.0216
513	0.0214
512	0.0214
511	0.0214
510	0.0215
509	0.0216
508	0.0216
507	0.0216
506	0.0216
505	0.0216
504	0.0216
503	0.0215
502	0.0214
501	0.0214
500	0.0214
499	0.0214
498	0.0215
497	0.0215
496	0.0215
495	0.0213
494	0.0212
493	0.0211
492	0.021
491	0.021
490	0.021
489	0.0209
488	0.0208
487	0.0207
486	0.0207
485	0.0205
484	0.0204
483	0.0202
482	0.02
481	0.0199
480	0.0199
479	0.0198
478	0.0197
477	0.0195
476	0.0193
475	0.0192
474	0.0191
473	0.019
472	0.0189
471	0.0188
470	0.0187
469	0.0186
468	0.0184
467	0.0183
466	0.0181
465	0.018
464	0.018
463	0.0179
462	0.0178
461	0.0177
460	0.0175
459	0.0174
458	0.0173
457	0.0172
456	0.017
455	0.017
454	0.0169
453	0.0168
452	0.0166
451	0.0166
450	0.0164
449	0.0164
448	0.0163
447	0.0163
446	0.0161
445	0.0161
444	0.0159
443	0.0159
442	0.0158
441	0.0158
440	0.0157
439	0.0157
438	0.0156
437	0.0155
436	0.0154
435	0.0154
434	0.0154
433	0.0154
432	0.0154
431	0.0153
430	0.0153
429	0.0153
428	0.0152
427	0.0152
426	0.0153
425	0.0154
424	0.0153
423	0.0153
422	0.0153
421	0.0154
420	0.0156
419	0.0157
418	0.0158
417	0.0158
416	0.016
415	0.0162
414	0.0164
413	0.0165
412	0.0167
411	0.0169
410	0.0171
409	0.0173
408	0.0176
407	0.0178
406	0.0181
405	0.0183
404	0.0187
403	0.019
402	0.0193
401	0.0197
400	0.0201
399	0.0206
398	0.0209
397	0.0211
396	0.0211
395	0.0214
394	0.0216
393	0.022
392	0.0221
391	0.0223
390	0.0225
389	0.0227
388	0.023
387	0.0233
386	0.0234
385	0.0236
384	0.0239
383	0.0241
382	0.0242
381	0.0245
380	0.0247
379	0.025
378	0.0253
377	0.0256
376	0.0259
375	0.0262
374	0.0264
373	0.0268
372	0.027
371	0.0273
370	0.028
369	0.0285
368	0.0289
367	0.0294
366	0.0297
365	0.0302
364	0.0307
363	0.0312
362	0.0318
361	0.0323
360	0.0329
359	0.0335
358	0.0343
357	0.035
356	0.0358
355	0.0367
354	0.0376
353	0.0385
352	0.0394
351	0.0403
350	0.0413
349	0.0424
348	0.0435
347	0.0447
346	0.046
345	0.0474
344	0.0489
343	0.0503
342	0.0519
341	0.0538
340	0.0565
339	0.0581
338	0.0597
337	0.0618
336	0.0641
335	0.0665
334	0.0688
333	0.0709
332	0.073
331	0.075
330	0.077
329	0.0787
328	0.0803
327	0.0819
326	0.0829
325	0.0838
324	0.0849
323	0.0857
322	0.0864
321	0.0872
320	0.0882
319	0.0893
318	0.0902
317	0.0912
316	0.0924
315	0.0936
314	0.0949
313	0.0966
312	0.0986
311	0.1012
310	0.1042
309	0.1078
308	0.1122
307	0.1174
306	0.1234
305	0.13
304	0.1372
303	0.1452
302	0.1536
301	0.1626
300	0.1718
299	0.1811
298	0.1903
297	0.1989
296	0.2069
295	0.2141
294	0.2199
293	0.2239
292	0.2261
291	0.2264
290	0.225
289	0.2221
288	0.2181
287	0.2133
286	0.2081
285	0.2029
284	0.1978
283	0.1927
282	0.1877
281	0.183
280	0.1782
279	0.1738
278	0.1696
277	0.1656
276	0.1619
275	0.1585
274	0.1556
273	0.1532
272	0.151
271	0.149
270	0.1472
269	0.1455
268	0.1439
267	0.1424
266	0.1408
265	0.1395
264	0.1387
263	0.1382
262	0.1381
261	0.1383
260	0.1388
259	0.1398
258	0.1411
257	0.143
256	0.1454
255	0.1481
254	0.1515
253	0.1556
252	0.1603
251	0.1654
250	0.1709
249	0.1765
248	0.1817
247	0.1864
246	0.1903
245	0.1936
244	0.1961
243	0.1983
242	0.2003
241	0.2023
240	0.2043
239	0.2066
238	0.2092
237	0.2124
236	0.2161
235	0.2206
234	0.2259
233	0.2321
232	0.2392
231	0.2472
230	0.2563
229	0.2664
228	0.2779
227	0.2905
226	0.3044
225	0.3198
224	0.3369
223	0.3561
222	0.3776
221	0.4016
220	0.428
219	0.4574
218	0.4895
217	0.5246
216	0.5635
215	0.6059
214	0.6527
213	0.7036
212	0.7594
211	0.8199
210	0.8852
209	0.9547
208	1.0272
207	1.1001
206	1.1681
205	1.2247
204	1.2641
203	1.2837
202	1.286
201	1.2772
200	1.261
199	1.2378
198	1.2106
197	1.1765
196	1.1353
195	1.0842
194	1.019
193	0.9436
192	0.8494
191	0.7324
190	0.6015
